0000,91.97
0001,91.01
0002,90.48
0003,90.22
0004,89.96
0005,85.84
0006,85.18
0007,84.72
0008,87.02
0009,86.06
0010,85.59
0011,85.11
0012,84.97
0013,84.07
0014,89.04
0015,86.86
0016,87.97
0017,88.53
0018,88.81
0019,89.09
0020,90.59
0021,91.38
0022,90.07
0023,90.65
0024,90.94
0025,91.23
0026,91.94
0027,92.33
0028,89.12
0029,88.16
0030,89.57
0031,90.28
0032,90.99
0033,94.72
0034,94.4
0035,95.71
0036,96.99
0037,96.79
0038,96.69
0039,96.6
0040,96.65
0041,93.84
0042,94.96
0043,95.94
0044,96.01
0045,96.05
0046,96.06
0047,96.08
0048,94.81
0049,86.68
0050,93.09
0051,91.58
0052,90.82
0053,90.06
0054,92.85
0055,91.54
0056,91.81
0057,90.63
0058,89.85
0059,89.47
0060,89.08
0061,88.98
0062,90.2
0063,89.85
0064,88.92
0065,88.50
0066,88.29
0067,88.08
0068,86.88
0069,86.42
0070,87.05
0071,85.2
0072,85.16
0073,85.13
0074,85.11
0075,86.86
0076,86.08
0077,89.4
0078,89.75
0079,90.50
0080,90.88
0081,91.25
0082,89.2
0083,89.68
0084,91.49
0085,90.62
0086,91.13
0087,91.38
0088,91.64
0089,91.13
0090,92.04
0091,90.3
0092,91.83
0093,92.59
0094,92.97
0095,93.36
0096,95.2
0097,95.01
0098,94.11
0099,95.87
0100,96.31
0101,96.53
0102,96.75
0103,95.66
0104,96.76
0105,97.83
0106,97.04
0107,97.11
0108,97.15
0109,97.18
0110,97.83
0111,96.94
0112,97.98
0113,97.9
0114,97.72
0115,97.63
0116,97.55
0117,97.64
0118,98.22
0119,100.0
0120,99.21
0121,99.16
0122,99.13
0123,99.11
0124,98.7
0125,96.21
0126,96.1
0127,94.48
0128,94.27
0129,94.16
0130,94.05
0131,91.76
0132,94.04
0133,91.99
0134,90.32
0135,90.44
0136,90.50
0137,90.56
0138,91.48
0139,90.6
0140,91.17
0141,90.4
0142,89.83
0143,89.54
0144,89.40
0145,89.25
0146,89.13
0147,88.55
0148,89.42
0149,89.22
0150,89.12
0151,89.02
0152,89.02
0153,89.55
0154,88.23
0155,87.0
0156,88.19
0157,88.78
0158,89.37
0159,90.02
0160,90.39
0161,91.0
0162,90.16
0163,89.34
0164,88.93
0165,88.51
0166,89.07
0167,90.68
0168,89.76
0169,88.29
0170,88.44
0171,88.52
0172,88.6
0173,88.28
0174,88.54
0175,88.17
0176,87.6
0177,87.29
0178,87.14
0179,86.99
0180,86.99
0181,87.85
0182,85.95
0183,85.22
0184,84.85
0185,84.67
0186,84.49
0187,85.78
0188,86.1
0189,85.99
0190,85.98
0191,85.25
0192,84.89
0193,84.53
0194,84.2
0195,84.62
0196,83.74
0197,81.97
0198,81.10
0199,80.67
0200,80.24
0201,78.09
0202,77.18
0203,76.2
0204,76.1
0205,75.10
0206,74.60
0207,74.1
0208,73.4
0209,76.5
0210,77.65
0211,78.0
0212,77.10
0213,76.65
0214,76.2
0215,77.08
0216,78.06
0217,75.65
0218,75.25
0219,74.46
0220,74.06
0221,73.67
0222,75.13
0223,77.32
0224,79.3
0225,79.5
0226,79.50
0227,79.50
0228,79.5
0229,79.71
0230,79.87
0231,77.02
0232,76.39
0233,73.19
0234,71.59
0235,70.0
0236,72.1
0237,70.21
0238,72.99
0239,75.5
0240,75.85
0241,76.03
0242,76.2
0243,76.02
0244,77.08
0245,78.25
0246,76.22
0247,76.90
0248,77.24
0249,77.41
0250,77.58
0251,78.74
0252,77.57
0253,76.75
0254,76.95
0255,77.05
0256,77.15
0257,77.04
0258,77.68
0259,80.02
0260,78.86
0261,77.95
0262,77.50
0263,77.05
0264,75.43
0265,75.24
0266,72.29
0267,74.06
0268,72.90
0269,72.32
0270,71.74
0271,69.86
0272,70.85
0273,73.8
0274,72.67
0275,75.41
0276,76.78
0277,78.16
0278,80.72
0279,84.37
0280,83.31
0281,87.35
0282,87.23
0283,87.18
0284,87.12
0285,85.13
0286,84.99
0287,85.3
0288,87.75
0289,87.01
0290,86.64
0291,86.27
0292,84.57
0293,84.44
0294,84.63
0295,85.09
0296,85.09
0297,85.09
0298,85.1
0299,81.84
0300,82.98
0301,84.32
0302,85.78
0303,85.46
0304,85.30
0305,85.14
0306,86.9
0307,88.48
0308,86.28
0309,85.41
0310,85.67
0311,85.81
0312,85.94
0313,85.22
0314,86.35
0315,82.34
0316,81.65
0317,82.05
0318,82.25
0319,82.44
0320,84.29
0321,83.84
0322,84.26
0323,83.0
0324,82.68
0325,82.52
0326,82.36
0327,83.3
0328,84.24
0329,83.56
0330,82.88
0331,82.64
0332,82.53
0333,82.41
0334,83.45
0335,83.33
0336,81.64
0337,79.29
0338,78.59
0339,78.23
0340,77.88
0341,74.72
0342,77.47
0343,77.84
0344,77.32
0345,75.84
0346,75.10
0347,74.36
0348,77.97
0349,77.29
0350,75.47
0351,73.19
0352,72.39
0353,72.00
0354,71.6
0355,70.33
0356,71.4
0357,73.75
0358,72.75
0359,72.25
0360,72.00
0361,71.76
0362,71.88
0363,69.8
0364,70.11
0365,70.45
0366,70.62
0367,70.71
0368,70.8
0369,70.06
0370,68.5
0371,65.92
0372,65.86
0373,65.87
0374,65.88
0375,65.88
0376,64.65
0377,63.42
0378,64.67
0379,62.01
0380,62.58
0381,62.86
0382,63.00
0383,63.15
0384,59.73
0385,60.24
0386,66.44
0387,65.53
0388,65.08
0389,64.62
0390,63.0
0391,65.09
0392,69.23
0393,69.17
0394,69.23
0395,69.27
0396,69.3
0397,67.01
0398,68.61
0399,70.67
0400,67.68
0401,66.67
0402,66.16
0403,65.66
0404,67.21
0405,65.45
0406,63.62
0407,66.82
0408,67.79
0409,68.28
0410,68.53
0411,68.77
0412,69.0
0413,70.99
0414,68.61
0415,70.08
0416,70.81
0417,71.54
0418,71.69
0419,67.23
0420,69.19
0421,68.0
0422,67.71
0423,67.56
0424,67.42
0425,65.1
0426,64.95
0427,66.95
0428,69.91
0429,70.52
0430,70.82
0431,71.12
0432,74.65
0433,71.59
0434,71.16
0435,73.14
0436,73.42
0437,73.56
0438,73.71
0439,73.82
0440,74.37
0441,75.66
0442,77.5
0443,76.26
0444,75.64
0445,75.02
0446,75.39
0447,75.45
0448,72.42
0449,73.36
0450,73.83
0451,74.06
0452,74.3
0453,73.17
0454,76.44
0455,73.48
0456,70.85
0457,71.66
0458,72.07
0459,72.48
0460,69.89
0461,70.68
0462,70.79
0463,73.37
0464,73.62
0465,73.75
0466,73.88
0467,74.46
0468,77.61
0469,78.03
0470,77.42
0471,75.73
0472,74.89
0473,74.04
0474,78.52
0475,78.13
0476,79.38
0477,79.67
0478,80.03
0479,80.21
0480,80.39
0481,80.515
0482,83.69
0483,83.85
0484,82.71
0485,82.52
0486,82.42
0487,82.33
0488,81.44
0489,80.61
0490,80.44
0491,78.83
0492,78.52
0493,78.36
0494,78.21
0495,78.77
0496,79.38
0497,81.39
0498,80.21
0499,79.92
0500,79.78
0501,79.64
0502,80.8
0503,81.36
0504,79.15
0505,80.59
0506,80.19
0507,80.00
0508,79.8
0509,81.79
0510,82.5
0511,83.55
0512,81.94
0513,81.98
0514,82.00
0515,82.02
0516,82.03
0517,80.65
0518,79.96
0519,80.24
0520,80.42
0521,80.52
0522,80.61
0523,81.99
0524,86.6
0525,84.17
0526,83.32
0527,82.16
0528,81.57
0529,80.99
0530,81.22
0531,82.73
0532,81.25
0533,80.95
0534,81.64
0535,81.98
0536,82.33
0537,82.99
0538,84.9
0539,84.76
0540,81.58
0541,80.79
0542,80.40
0543,80.0
0544,80.65
0545,82.8
0546,83.44
0547,83.78
0548,83.45
0549,83.28
0550,83.20
0551,83.12
0552,82.03
0553,83.83
0554,82.84
0555,82.89
0556,82.91
0557,82.94
0558,84.55
0559,84.59
0560,84.84
0561,84.51
0562,84.22
0563,84.07
0564,83.92
0565,82.87
0566,81.53
0567,82.15
0568,82.05
0569,81.22
0570,80.80
0571,80.38
0572,78.47
0573,80.76
0574,79.74
0575,79.0
0576,80.02
0577,80.53
0578,81.04
0579,79.37
0580,80.0
0581,82.03
0582,87.23
0583,89.10
0584,90.03
0585,90.97
0586,91.29
0587,90.87
0588,90.07
0589,90.65
0590,91.08
0591,91.30
0592,91.51
0593,90.19
0594,89.81
0595,90.82
0596,91.17
0597,91.00
0598,90.91
0599,90.83
0600,90.73
0601,90.77
0602,90.7
0603,90.73
0604,90.36
0605,90.17
0606,89.98
0607,91.27
0608,89.76
0609,88.31
0610,89.27
0611,89.76
0612,90.00
0613,90.12
0614,90.25
0615,94.78
0616,95.18
0617,94.36
0618,93.20
0619,92.62
0620,92.05
0621,91.61
0622,89.88
0623,88.85
0624,89.54
0625,90.60
0626,91.13
0627,91.66
0628,90.16
0629,91.56
0630,94.61
0631,92.25
0632,91.23
0633,90.72
0634,90.22
0635,88.15
0636,89.46
0637,94.28
0638,95.55
0639,95.91
0640,96.09
0641,96.27
0642,96.32
0643,96.37
0644,97.55
0645,96.88
0646,97.08
0647,97.18
0648,97.28
0649,96.75
0650,95.88
0651,95.43
0652,96.27
0653,95.36
0654,94.91
0655,94.46
0656,94.96
0657,94.26
0658,93.97
0659,94.19
0660,94.09
0661,94.03
0662,93.98
0663,93.48
0664,91.85
0665,92.51
0666,91.65
0667,91.16
0668,90.91
0669,90.66
0670,91.32
0671,89.91
0672,90.88
0673,94.87
0674,94.23
0675,93.91
0676,93.6
0677,92.9
0678,93.35
0679,92.64
0680,92.07
0681,91.63
0682,91.41
0683,91.19
0684,94.03
0685,94.51
0686,96.1
0687,92.75
0688,93.88
0689,94.44
0690,95.0
0691,95.79
0692,94.79
0693,95.59
0694,96.39
0695,96.52
0696,96.58
0697,96.64
0698,91.6
0699,97.31
0700,105.71
0701,104.81
0702,104.84
0703,104.86
0704,104.88
0705,103.52
0706,103.92
0707,104.03
0708,105.59
0709,107.34
0710,108.22
0711,109.1
0712,107.0
0713,106.69
0714,103.03
0715,104.09
0716,104.18
0717,104.22
0718,104.27
0719,104.2
0720,103.75
0721,102.67
0722,102.7
0723,102.76
0724,102.79
0725,102.81
0726,102.82
0727,102.49
0728,101.6
0729,101.15
0730,101.89
0731,102.26
0732,102.44
0733,102.63
0734,104.25
0735,103.63
0736,104.61
0737,104.47
0738,104.39
0739,104.32
0740,103.23
0741,103.56
0742,105.51
0743,104.84
0744,105.40
0745,105.68
0746,105.81
0747,105.95
0748,105.34
0749,105.5
0750,106.23
0751,105.47
0752,105.09
0753,104.72
0754,104.49
0755,103.63
0756,104.1
0757,104.16
0758,103.17
0759,102.68
0760,102.19
0761,101.35
0762,102.19
0763,101.14
0764,99.68
0765,100.34
0766,100.67
0767,101.0
0768,99.25
0769,96.6
0770,99.1
0771,101.23
0772,101.07
0773,100.99
0774,100.91
0775,100.33
0776,100.91
0777,101.06
0778,99.91
0779,100.16
0780,100.28
0781,100.34
0782,100.41
0783,98.76
0784,99.19
0785,96.52
0786,96.65
0787,96.72
0788,96.78
0789,99.5
0790,98.25
0791,99.18
0792,98.5
0793,98.56
0794,98.59
0795,98.62
0796,100.4
0797,98.81
0798,93.77
0799,96.5
0800,95.50
0801,95.00
0802,94.49
0803,93.93
0804,95.54
0805,97.16
0806,96.54
0807,96.15
0808,95.95
0809,95.75
0810,96.49
0811,94.34
0812,94.48
0813,94.94
0814,94.14
0815,93.75
0816,93.35
0817,93.5
0818,95.18
0819,98.19
0820,97.18
0821,97.34
0822,97.42
0823,97.5
0824,97.37
0825,99.4
0826,97.97
0827,98.23
0828,98.20
0829,98.19
0830,98.17
0831,98.09
0832,97.82
0833,97.25
0834,96.45
0835,96.06
0836,95.86
0837,95.66
0838,95.11
0839,94.93
0840,93.77
0841,93.0
0842,93.73
0843,94.09
0844,94.46
0845,93.8
0846,94.42
0847,93.57
0848,93.97
0849,93.25
0850,92.89
0851,92.53
0852,92.24
0853,91.53
0854,91.04
0855,89.03
0856,89.71
0857,90.05
0858,90.39
0859,92.36
0860,93.01
0861,94.82
0862,94.12
0863,95.22
0864,95.77
0865,96.32
0866,94.87
0867,93.28
0868,92.23
0869,92.38
0870,93.25
0871,93.69
0872,94.13
0873,93.12
0874,92.37
0875,92.28
0876,91.29
0877,90.88
0878,90.67
0879,90.57
0880,90.47
0881,88.99
0882,90.64
0883,90.04
0884,89.58
0885,89.35
0886,89.12
0887,89.1
0888,90.22
0889,87.63
0890,88.33
0891,89.80
0892,90.53
0893,91.26
0894,90.05
0895,90.03
0896,88.86
0897,87.57
0898,87.97
0899,88.17
0900,88.37
0901,86.79
0902,88.1
0903,87.34
0904,87.61
0905,87.83
0906,87.94
0907,88.04
0908,88.19
0909,88.18
0910,89.47
0911,90.34
0912,90.67
0913,90.84
0914,91.0
0915,91.41
0916,91.82
0917,90.53
0918,88.07
0919,88.10
0920,88.11
0921,88.13
0922,89.62
0923,91.46
0924,90.37
0925,91.98
0926,91.65
0927,91.48
0928,91.31
0929,92.25
0930,91.56
0931,95.0
0932,93.39
0933,93.20
0934,93.11
0935,93.02
0936,94.78
0937,95.66
0938,94.62
0939,96.01
0940,95.66
0941,95.49
0942,95.32
0943,88.82
0944,92.62
0945,92.39
0946,88.82
0947,89.35
0948,89.62
0949,89.89
0950,89.81
0951,91.52
0952,90.63
0953,89.15
0954,89.04
0955,88.99
0956,88.93
0957,87.75
0958,87.23
0959,84.78
0960,83.35
0961,83.58
0962,83.69
0963,83.81
0964,83.91
0965,84.16
0966,84.8
0967,85.01
0968,84.68
0969,84.52
0970,84.35
0971,82.62
0972,82.92
0973,84.0
0974,85.0
0975,85.46
0976,85.69
0977,85.81
0978,85.92
0979,86.72
0980,87.75
0981,87.87
0982,87.49
0983,87.30
0984,87.11
0985,87.85
0986,89.32
0987,91.5
0988,92.43
0989,92.60
0990,92.69
0991,92.77
0992,93.08
0993,93.58
0994,93.66
0995,93.77
0996,94.38
0997,94.69
0998,95.0
0999,95.99
1000,96.9
1001,97.45
1002,96.73
1003,96.12
1004,95.82
1005,95.52
1006,96.98
1007,96.65
1008,96.5
1009,95.79
1010,96.16
1011,96.34
1012,96.53
1013,97.1
1014,96.77
1015,96.08
1016,97.5
1017,97.31
1018,97.22
1019,97.13
1020,97.25
1021,97.54
1022,95.69
1023,95.78
1024,96.42
1025,96.75
1026,97.07
1027,97.7
1028,96.32
1029,96.45
1030,96.21
1031,97.44
1032,98.05
1033,98.66
1034,99.25
1035,100.79
1036,101.37
1037,103.8
1038,104.47
1039,104.81
1040,105.15
1041,107.35
1042,105.51
1043,103.83
1044,104.53
1045,104.37
1046,104.28
1047,104.2
1048,103.85
1049,101.18
1050,101.29
1051,101.76
1052,101.57
1053,101.47
1054,101.38
1055,102.3
1056,102.41
1057,102.25
1058,102.09
1059,101.83
1060,101.70
1061,101.57
1062,99.75
1063,99.56
1064,101.0
1065,103.32
1066,103.00
1067,102.84
1068,102.69
1069,100.69
1070,100.43
1071,98.89
1072,100.28
1073,100.38
1074,100.44
1075,100.49
1076,101.37
1077,100.46
1078,100.09
1079,100.34
1080,99.59
1081,99.22
1082,98.85
1083,99.95
1084,102.0
1085,103.76
1086,106.27
1087,106.75
1088,107.00
1089,107.12
1090,107.24
1091,109.06
1092,108.5
1093,109.11
1094,108.89
1095,108.67
